Voltage[V]	Capacitance [F]	Secondary Value	Chuck Temp [C]	Air Temp [C]	Rel. Humidity [%]
0.000000E+0	7.106610E-10	7.520390E+7	2.000000E+1	2.036000E+1	1.720000E+0
2.000000E-1	6.455840E-10	6.990820E+7	2.000000E+1	2.036000E+1	1.720000E+0
4.000000E-1	5.993870E-10	8.602080E+7	2.000000E+1	2.037000E+1	1.740000E+0
6.000000E-1	5.650370E-10	1.051790E+8	2.000000E+1	2.037000E+1	1.720000E+0
8.000000E-1	5.370880E-10	1.275340E+8	2.000000E+1	2.036000E+1	1.720000E+0
1.000000E+0	5.132830E-10	1.522630E+8	2.000000E+1	2.037000E+1	1.680000E+0
1.200000E+0	4.935690E-10	1.645470E+8	2.000000E+1	2.034000E+1	1.740000E+0
1.400000E+0	4.753670E-10	1.736210E+8	2.000000E+1	2.036000E+1	1.720000E+0
1.600000E+0	4.597830E-10	1.916570E+8	2.000000E+1	2.037000E+1	1.740000E+0
1.800000E+0	4.460930E-10	2.233730E+8	2.000000E+1	2.037000E+1	1.780000E+0
2.000000E+0	4.340210E-10	2.558480E+8	2.000000E+1	2.040000E+1	1.720000E+0
2.200000E+0	4.228810E-10	2.761750E+8	2.000000E+1	2.036000E+1	1.700000E+0
2.400000E+0	4.124900E-10	3.859390E+8	2.000000E+1	2.038000E+1	1.700000E+0
2.600000E+0	4.026790E-10	3.340950E+8	2.000000E+1	2.037000E+1	1.700000E+0
2.800000E+0	3.942400E-10	2.839460E+8	2.000000E+1	2.036000E+1	1.740000E+0
3.000000E+0	3.858430E-10	4.042810E+8	2.000000E+1	2.034000E+1	1.720000E+0
3.200000E+0	3.784440E-10	5.391760E+8	2.000000E+1	2.036000E+1	1.700000E+0
3.400000E+0	3.715000E-10	5.160820E+8	2.000000E+1	2.037000E+1	1.720000E+0
3.600000E+0	3.648930E-10	8.185960E+8	2.000000E+1	2.038000E+1	1.700000E+0
3.800000E+0	3.584090E-10	5.630160E+8	2.000000E+1	2.037000E+1	1.760000E+0
4.000000E+0	3.526800E-10	5.151320E+8	2.000000E+1	2.037000E+1	1.740000E+0
4.200000E+0	3.469590E-10	6.594470E+8	2.000000E+1	2.038000E+1	1.800000E+0
4.400000E+0	3.416490E-10	1.204010E+9	2.000000E+1	2.034000E+1	1.720000E+0
4.600000E+0	3.366040E-10	1.395900E+9	2.000000E+1	2.038000E+1	1.740000E+0
4.800000E+0	3.319700E-10	2.278170E+9	2.000000E+1	2.040000E+1	1.700000E+0
5.000000E+0	3.271940E-10	1.921680E+9	2.000000E+1	2.037000E+1	1.720000E+0
5.200000E+0	3.226930E-10	1.176730E+9	2.000000E+1	2.037000E+1	1.760000E+0
5.400000E+0	3.185920E-10	1.085950E+9	2.000000E+1	2.036000E+1	1.680000E+0
5.600000E+0	3.143500E-10	1.738590E+9	2.000000E+1	2.037000E+1	1.760000E+0
5.800000E+0	3.105350E-10	5.494710E+9	2.000000E+1	2.037000E+1	1.700000E+0
6.000000E+0	3.069760E-10	-1.018370E+10	2.000000E+1	2.037000E+1	1.740000E+0
6.200000E+0	3.031610E-10	-5.005800E+9	2.000000E+1	2.036000E+1	1.740000E+0
6.400000E+0	2.996290E-10	2.919430E+9	2.000000E+1	2.038000E+1	1.760000E+0
6.600000E+0	2.961320E-10	3.498260E+9	2.000000E+1	2.038000E+1	1.700000E+0
6.800000E+0	2.928770E-10	1.602100E+10	2.000000E+1	2.038000E+1	1.720000E+0
7.000000E+0	2.899040E-10	-1.530340E+10	2.000000E+1	2.038000E+1	1.680000E+0
7.200000E+0	2.869040E-10	-4.303830E+9	2.000000E+1	2.038000E+1	1.740000E+0
7.400000E+0	2.838490E-10	-1.722070E+9	2.000000E+1	2.038000E+1	1.700000E+0
7.600000E+0	2.808240E-10	-8.497810E+9	2.000000E+1	2.038000E+1	1.680000E+0
7.800000E+0	2.779660E-10	-9.808330E+9	2.000000E+1	2.040000E+1	1.760000E+0
8.000000E+0	2.750960E-10	-4.621410E+9	2.000000E+1	2.038000E+1	1.660000E+0
8.200000E+0	2.725960E-10	-2.377390E+9	2.000000E+1	2.038000E+1	1.640000E+0
8.400000E+0	2.698540E-10	-1.204050E+9	2.000000E+1	2.038000E+1	1.700000E+0
8.600000E+0	2.674210E-10	-1.138410E+9	2.000000E+1	2.040000E+1	1.680000E+0
8.800000E+0	2.648100E-10	-2.926580E+9	2.000000E+1	2.037000E+1	1.700000E+0
9.000000E+0	2.625710E-10	-9.504800E+9	2.000000E+1	2.040000E+1	1.720000E+0
9.200000E+0	2.600390E-10	-2.116650E+9	2.000000E+1	2.041000E+1	1.740000E+0
9.400000E+0	2.576600E-10	-1.462690E+9	2.000000E+1	2.040000E+1	1.700000E+0
9.600000E+0	2.554410E-10	-1.050760E+9	2.000000E+1	2.041000E+1	1.640000E+0
9.800000E+0	2.532290E-10	-9.652450E+8	2.000000E+1	2.041000E+1	1.680000E+0
1.000000E+1	2.509630E-10	-1.325890E+9	2.000000E+1	2.040000E+1	1.680000E+0
1.020000E+1	2.486990E-10	-1.364400E+9	2.000000E+1	2.040000E+1	1.660000E+0
1.040000E+1	2.465300E-10	-1.285120E+9	2.000000E+1	2.041000E+1	1.660000E+0
1.060000E+1	2.446060E-10	-1.302310E+9	2.000000E+1	2.044000E+1	1.760000E+0
1.080000E+1	2.425100E-10	-9.572940E+8	2.000000E+1	2.041000E+1	1.760000E+0
1.100000E+1	2.405720E-10	-8.607910E+8	2.000000E+1	2.041000E+1	1.740000E+0
1.120000E+1	2.385190E-10	-1.055420E+9	2.000000E+1	2.040000E+1	1.740000E+0
1.140000E+1	2.368010E-10	-2.532100E+9	2.000000E+1	2.040000E+1	1.740000E+0
1.160000E+1	2.346420E-10	-1.060210E+9	2.000000E+1	2.040000E+1	1.720000E+0
1.180000E+1	2.327850E-10	-8.130590E+8	2.000000E+1	2.043000E+1	1.660000E+0
1.200000E+1	2.309860E-10	-6.950470E+8	2.000000E+1	2.041000E+1	1.720000E+0
1.220000E+1	2.290790E-10	-6.824590E+8	2.000000E+1	2.041000E+1	1.720000E+0
1.240000E+1	2.272590E-10	-8.322390E+8	2.000000E+1	2.041000E+1	1.720000E+0
1.260000E+1	2.253340E-10	-9.269590E+8	2.000000E+1	2.041000E+1	1.720000E+0
1.280000E+1	2.236550E-10	-1.125260E+9	2.000000E+1	2.045000E+1	1.700000E+0
1.300000E+1	2.217210E-10	-9.066860E+8	2.000000E+1	2.041000E+1	1.700000E+0
1.320000E+1	2.202880E-10	-8.127330E+8	2.000000E+1	2.041000E+1	1.680000E+0
1.340000E+1	2.184380E-10	-7.260240E+8	2.000000E+1	2.044000E+1	1.700000E+0
1.360000E+1	2.167730E-10	-7.206090E+8	2.000000E+1	2.044000E+1	1.720000E+0
1.380000E+1	2.149560E-10	-8.096590E+8	2.000000E+1	2.043000E+1	1.680000E+0
1.400000E+1	2.132000E-10	-7.941900E+8	2.000000E+1	2.044000E+1	1.700000E+0
1.420000E+1	2.115180E-10	-8.681320E+8	2.000000E+1	2.041000E+1	1.720000E+0
1.440000E+1	2.098200E-10	-6.753430E+8	2.000000E+1	2.043000E+1	1.780000E+0
1.460000E+1	2.083570E-10	-6.433260E+8	2.000000E+1	2.041000E+1	1.680000E+0
1.480000E+1	2.065900E-10	-5.907190E+8	2.000000E+1	2.044000E+1	1.680000E+0
1.500000E+1	2.049420E-10	-7.536980E+8	2.000000E+1	2.043000E+1	1.680000E+0
1.520000E+1	2.034180E-10	-9.145900E+8	2.000000E+1	2.043000E+1	1.640000E+0
1.540000E+1	2.017860E-10	-7.182600E+8	2.000000E+1	2.044000E+1	1.680000E+0
1.560000E+1	2.002350E-10	-6.907950E+8	2.000000E+1	2.044000E+1	1.700000E+0
1.580000E+1	1.985230E-10	-5.688690E+8	2.000000E+1	2.043000E+1	1.660000E+0
1.600000E+1	1.968770E-10	-5.753120E+8	2.000000E+1	2.045000E+1	1.680000E+0
1.620000E+1	1.953070E-10	-7.702010E+8	2.000000E+1	2.043000E+1	1.680000E+0
1.640000E+1	1.938330E-10	-8.762280E+8	2.000000E+1	2.044000E+1	1.660000E+0
1.660000E+1	1.920710E-10	-7.069190E+8	2.000000E+1	2.044000E+1	1.700000E+0
1.680000E+1	1.905350E-10	-6.525470E+8	2.000000E+1	2.043000E+1	1.720000E+0
1.700000E+1	1.889120E-10	-5.423680E+8	2.000000E+1	2.045000E+1	1.700000E+0
1.720000E+1	1.872310E-10	-5.387460E+8	2.000000E+1	2.041000E+1	1.700000E+0
1.740000E+1	1.855920E-10	-6.046830E+8	2.000000E+1	2.043000E+1	1.620000E+0
1.760000E+1	1.840340E-10	-6.764820E+8	2.000000E+1	2.044000E+1	1.740000E+0
1.780000E+1	1.825750E-10	-7.615500E+8	2.000000E+1	2.045000E+1	1.680000E+0
1.800000E+1	1.808290E-10	-6.712340E+8	2.000000E+1	2.045000E+1	1.700000E+0
1.820000E+1	1.791280E-10	-5.873970E+8	2.000000E+1	2.045000E+1	1.680000E+0
1.840000E+1	1.775350E-10	-5.544530E+8	2.000000E+1	2.045000E+1	1.680000E+0
1.860000E+1	1.758800E-10	-5.725660E+8	2.000000E+1	2.044000E+1	1.700000E+0
1.880000E+1	1.741190E-10	-6.303360E+8	2.000000E+1	2.045000E+1	1.640000E+0
1.900000E+1	1.723480E-10	-6.176370E+8	2.000000E+1	2.045000E+1	1.680000E+0
1.920000E+1	1.706370E-10	-6.672550E+8	2.000000E+1	2.043000E+1	1.740000E+0
1.940000E+1	1.688030E-10	-5.061220E+8	2.000000E+1	2.045000E+1	1.680000E+0
1.960000E+1	1.670580E-10	-5.054240E+8	2.000000E+1	2.045000E+1	1.620000E+0
1.980000E+1	1.651900E-10	-5.082970E+8	2.000000E+1	2.045000E+1	1.700000E+0
2.000000E+1	1.633590E-10	-6.025690E+8	2.000000E+1	2.047000E+1	1.660000E+0
2.020000E+1	1.615960E-10	-7.900940E+8	2.000000E+1	2.047000E+1	1.660000E+0
2.040000E+1	1.593410E-10	-6.375000E+8	2.000000E+1	2.047000E+1	1.760000E+0
2.060000E+1	1.573800E-10	-5.754150E+8	2.000000E+1	2.045000E+1	1.700000E+0
2.080000E+1	1.552650E-10	-5.085590E+8	2.000000E+1	2.047000E+1	1.720000E+0
2.100000E+1	1.531830E-10	-5.037780E+8	2.000000E+1	2.048000E+1	1.680000E+0
2.120000E+1	1.509470E-10	-5.924210E+8	2.000000E+1	2.047000E+1	1.630000E+0
2.140000E+1	1.485690E-10	-5.809080E+8	2.000000E+1	2.045000E+1	1.700000E+0
2.160000E+1	1.460860E-10	-6.227120E+8	2.000000E+1	2.047000E+1	1.630000E+0
2.180000E+1	1.435400E-10	-5.686900E+8	2.000000E+1	2.047000E+1	1.660000E+0
2.200000E+1	1.406240E-10	-4.898990E+8	2.000000E+1	2.047000E+1	1.680000E+0
2.220000E+1	1.376260E-10	-5.152650E+8	2.000000E+1	2.050000E+1	1.670000E+0
2.240000E+1	1.344040E-10	-5.859810E+8	2.000000E+1	2.047000E+1	1.700000E+0
2.260000E+1	1.307420E-10	-6.001060E+8	2.000000E+1	2.047000E+1	1.700000E+0
2.280000E+1	1.267680E-10	-6.323840E+8	2.000000E+1	2.048000E+1	1.680000E+0
2.300000E+1	1.221960E-10	-5.991430E+8	2.000000E+1	2.048000E+1	1.670000E+0
2.320000E+1	1.166660E-10	-5.143920E+8	2.000000E+1	2.047000E+1	1.680000E+0
2.340000E+1	1.102250E-10	-5.497150E+8	2.000000E+1	2.047000E+1	1.700000E+0
2.360000E+1	1.019900E-10	-5.493740E+8	2.000000E+1	2.047000E+1	1.600000E+0
2.380000E+1	9.159700E-11	-6.378150E+8	2.000000E+1	2.048000E+1	1.630000E+0
2.400000E+1	7.482350E-11	-7.864100E+8	2.000000E+1	2.048000E+1	1.640000E+0
2.420000E+1	4.343180E-11	-1.209180E+9	2.000000E+1	2.050000E+1	1.630000E+0
2.440000E+1	8.445990E-12	-5.256800E+9	2.000000E+1	2.048000E+1	1.580000E+0
2.460000E+1	3.434730E-12	-3.306870E+9	2.000000E+1	2.048000E+1	1.730000E+0
2.480000E+1	3.291880E-12	-3.543610E+9	2.000000E+1	2.048000E+1	1.680000E+0
2.500000E+1	3.432720E-12	-3.396800E+9	2.000000E+1	2.048000E+1	1.680000E+0
2.520000E+1	3.520280E-12	-4.038130E+9	2.000000E+1	2.045000E+1	1.680000E+0
2.540000E+1	3.478590E-12	-3.344590E+9	2.000000E+1	2.048000E+1	1.630000E+0
2.560000E+1	3.393020E-12	-2.759470E+9	2.000000E+1	2.048000E+1	1.670000E+0
2.580000E+1	3.396130E-12	-2.192320E+9	2.000000E+1	2.048000E+1	1.670000E+0
2.600000E+1	3.282020E-12	-2.580770E+9	2.000000E+1	2.048000E+1	1.640000E+0
2.620000E+1	3.632310E-12	-2.708780E+9	2.000000E+1	2.048000E+1	1.700000E+0
2.640000E+1	3.484250E-12	-2.989520E+9	2.000000E+1	2.047000E+1	1.700000E+0
2.660000E+1	3.471630E-12	-3.120270E+9	2.000000E+1	2.047000E+1	1.660000E+0
2.680000E+1	3.424340E-12	-2.450810E+9	2.000000E+1	2.048000E+1	1.700000E+0
2.700000E+1	3.296000E-12	-2.289170E+9	2.000000E+1	2.050000E+1	1.680000E+0
2.720000E+1	3.294190E-12	-2.234520E+9	2.000000E+1	2.048000E+1	1.600000E+0
2.740000E+1	3.364730E-12	-2.710360E+9	2.000000E+1	2.048000E+1	1.700000E+0
2.760000E+1	3.464390E-12	-2.926290E+9	2.000000E+1	2.050000E+1	1.630000E+0
2.780000E+1	3.452260E-12	-3.174010E+9	2.000000E+1	2.050000E+1	1.680000E+0
2.800000E+1	3.468240E-12	-2.785030E+9	2.000000E+1	2.047000E+1	1.640000E+0
2.820000E+1	3.298170E-12	-2.544450E+9	2.000000E+1	2.048000E+1	1.700000E+0
2.840000E+1	3.204320E-12	-2.349880E+9	2.000000E+1	2.050000E+1	1.680000E+0
2.860000E+1	3.387240E-12	-3.082970E+9	2.000000E+1	2.048000E+1	1.630000E+0
2.880000E+1	3.466650E-12	-3.201890E+9	2.000000E+1	2.047000E+1	1.640000E+0
2.900000E+1	3.524890E-12	-2.588890E+9	2.000000E+1	2.048000E+1	1.640000E+0
2.920000E+1	3.473150E-12	-3.056310E+9	2.000000E+1	2.051000E+1	1.680000E+0
2.940000E+1	3.273030E-12	-2.242670E+9	2.000000E+1	2.051000E+1	1.640000E+0
2.960000E+1	3.285900E-12	-2.530450E+9	2.000000E+1	2.051000E+1	1.640000E+0
2.980000E+1	3.244220E-12	-2.334220E+9	2.000000E+1	2.051000E+1	1.630000E+0
3.000000E+1	3.582290E-12	-3.008480E+9	2.000000E+1	2.051000E+1	1.630000E+0
